Detector angle	Rate at 35kV
2*theta/°	R(35kV)/Imp/s

10.0	24.0
10.2	33.0
10.4	43.0
10.6	54.0
10.8	72.0
11.0	88.0
11.2	92.0
11.3	105.0
11.6	129.0
11.8	138.0
12.0	155.0
12.2	156.0
12.4	186.0
12.6	191.0
12.8	213.0
13.0	241.0
13.2	248.0
13.4	238.0
13.6	250.0
13.8	282.0
14.0	292.0
14.2	281.0
14.4	304.0
14.6	308.0
14.8	321.0
15.0	318.0
15.2	332.0
15.4	332.0
15.6	337.0
15.8	361.0
16.0	356.0
16.2	353.0
16.4	346.0
16.6	383.0
16.7	391.0
17.0	363.0
17.2	367.0
17.4	385.0
17.6	387.0
17.7	405.0
18.0	441.0
18.2	416.0
18.4	422.0
18.6	442.0
18.8	450.0
19.0	445.0
19.2	453.0
19.4	454.0
19.6	466.0
19.8	458.0
20.0	485.0
20.2	469.0
20.4	533.0
20.6	499.0
20.8	532.0
21.0	501.0
21.2	521.0
21.4	527.0
21.6	534.0
21.7	534.0
22.0	517.0
22.2	557.0
22.4	521.0
22.6	556.0
22.8	547.0
23.0	512.0
23.2	514.0
23.4	498.0
23.6	495.0
23.8	514.0
24.0	523.0
24.2	521.0
24.4	530.0
24.6	511.0
24.7	517.0
25.0	505.0
25.2	525.0
25.4	507.0
25.6	523.0
25.8	495.0
26.0	495.0
26.2	497.0
26.4	441.0
26.6	419.0
26.8	415.0
27.0	403.0
27.2	351.0
27.4	350.0
27.6	378.0
27.8	366.0
28.0	363.0
28.2	354.0
28.4	354.0
28.6	339.0
28.8	329.0
29.0	322.0
29.2	323.0
29.4	304.0
29.6	321.0
29.8	338.0
30.0	316.0
30.2	332.0
30.4	323.0
30.6	317.0
30.8	330.0
31.0	303.0
31.2	277.0
31.4	314.0
31.6	307.0
31.8	265.0
32.0	271.0
32.2	303.0
32.4	268.0
32.5	276.0
32.8	291.0
33.0	265.0
33.2	282.0
33.4	266.0
33.6	253.0
33.8	247.0
34.0	248.0
34.2	257.0
34.4	240.0
34.5	226.0
34.8	225.0
35.0	228.0
35.2	235.0
35.4	235.0
35.5	225.0
35.8	229.0
36.0	220.0
36.2	214.0
36.4	200.0
36.5	199.0
36.8	203.0
37.0	213.0
37.2	211.0
37.4	219.0
37.5	186.0
37.8	176.0
38.0	185.0
38.2	169.0
38.4	176.0
38.6	173.0
38.8	160.0
39.0	198.0
39.2	167.0
39.4	191.0
39.5	239.0
39.8	849.0
40.0	2243.0
40.2	2541.0
40.4	2521.0
40.5	1862.0
40.8	349.0
41.0	285.0
41.2	269.0
41.4	246.0
41.5	227.0
41.8	199.0
42.0	234.0
42.2	212.0
42.4	204.0
42.6	218.0
42.8	205.0
43.0	218.0
43.2	197.0
43.4	216.0
43.6	207.0
43.8	246.0
44.0	270.0
44.2	528.0
44.4	3212.0
44.5	6053.0
44.8	8556.0
45.0	8366.0
45.2	3092.0
45.4	484.0
45.5	282.0
45.8	202.0
46.0	175.0
46.2	177.0
46.4	157.0
46.5	144.0
46.8	150.0
47.0	138.0
47.2	141.0
47.4	130.0
47.6	124.0
47.8	121.0
48.0	124.0
48.2	123.0
48.4	117.0
48.6	117.0
48.8	106.0
49.0	103.0
49.2	104.0
49.4	97.0
49.5	105.0
49.8	94.0
50.0	97.0
50.2	96.0
50.4	88.0
50.5	84.0
50.8	104.0
51.0	93.0
51.2	83.0
51.4	83.0
51.6	78.0
51.8	77.0
52.0	75.0
52.2	77.0
52.4	83.0
52.6	75.0
52.8	76.0
53.0	79.0
53.2	84.0
53.4	72.0
53.6	76.0
53.8	64.0
54.0	68.0
54.2	65.0
54.4	65.0
54.6	65.0
54.8	63.0
55.0	59.0
55.2	57.0
55.4	53.0
55.6	61.0
55.8	57.0
56.0	50.0
56.2	45.0
56.4	56.0
56.6	50.0
56.8	57.0
57.0	39.0
57.2	58.0
57.4	55.0
57.6	47.0
57.8	44.0
58.0	42.0
58.2	38.0
58.4	40.0
58.6	42.0
58.8	50.0
59.0	35.0
59.2	38.0
59.4	44.0
59.6	38.0
59.8	39.0
60.0	42.0
60.2	36.0
60.4	46.0
60.6	29.0
60.8	36.0
61.0	35.0
61.2	30.0
61.4	29.0
61.6	24.0
61.8	27.0
62.0	34.0
62.2	31.0
62.4	38.0
62.6	24.0
62.8	30.0
63.0	33.0
63.2	33.0
63.4	31.0
63.6	32.0
63.8	30.0
64.0	29.0
64.1	32.0
64.4	30.0
64.6	30.0
64.8	24.0
65.0	27.0
65.2	32.0
65.4	24.0
65.6	25.0
65.8	30.0
66.0	32.0
66.2	28.0
66.4	22.0
66.6	19.0
66.8	27.0
67.0	22.0
67.2	22.0
67.4	24.0
67.6	23.0
67.8	23.0
68.0	23.0
68.2	22.0
68.4	17.0
68.6	28.0
68.8	28.0
69.0	13.0
69.1	18.0
69.4	23.0
69.6	24.0
69.8	25.0
70.0	18.0
70.2	25.0
70.4	19.0
70.6	18.0
70.8	22.0
71.0	28.0
71.2	17.0
71.4	14.0
71.6	22.0
71.8	19.0
72.0	17.0
72.2	20.0
72.4	20.0
72.6	20.0
72.8	22.0
73.0	15.0
73.2	21.0
73.4	15.0
73.6	17.0
73.8	19.0
74.0	15.0
74.1	20.0
74.4	18.0
74.6	18.0
74.8	18.0
75.0	17.0
75.2	11.0
75.4	15.0
75.6	21.0
75.8	10.0
76.0	21.0
76.2	15.0
76.4	12.0
76.6	14.0
76.8	21.0
77.0	22.0
77.2	17.0
77.4	13.0
77.6	13.0
77.8	18.0
78.0	13.0
78.2	18.0
78.4	9.0
78.6	17.0
78.8	13.0
79.0	11.0
79.1	15.0
79.4	16.0
79.6	20.0
79.8	13.0
80.0	13.0
80.2	14.0
80.4	9.0
80.6	8.0
80.8	12.0
81.0	13.0
81.1	14.0
81.4	15.0
81.6	14.0
81.8	16.0
82.0	16.0
82.2	15.0
82.4	13.0
82.6	11.0
82.8	17.0
83.0	12.0
83.2	12.0
83.4	10.0
83.6	15.0
83.8	15.0
84.0	14.0
84.1	11.0
84.4	13.0
84.6	15.0
84.8	16.0
85.0	16.0
85.2	17.0
85.4	11.0
85.6	13.0
85.8	15.0
86.0	23.0
86.1	29.0
86.4	27.0
86.6	43.0
86.8	140.0
87.0	359.0
87.2	466.0
87.4	423.0
87.6	137.0
87.8	42.0
88.0	33.0
88.2	33.0
88.4	17.0
88.6	21.0
88.8	22.0
89.0	19.0
89.1	22.0
89.4	16.0
89.6	22.0
89.8	21.0
90.0	16.0
90.2	15.0
90.4	17.0
90.6	14.0
90.8	19.0
91.0	13.0
91.1	12.0
91.4	16.0
91.6	20.0
91.8	16.0
92.0	14.0
92.2	17.0
92.4	21.0
92.6	12.0
92.8	10.0
93.0	13.0
93.2	13.0
93.4	12.0
93.6	14.0
93.8	22.0
94.0	12.0
94.1	16.0
94.4	16.0
94.6	11.0
94.8	13.0
95.0	17.0
95.2	14.0
95.4	13.0
95.6	13.0
95.8	15.0
96.0	12.0
96.1	17.0
96.4	15.0
96.6	15.0
96.8	21.0
97.0	15.0
97.2	13.0
97.4	19.0
97.6	21.0
97.8	23.0
98.0	23.0
98.2	18.0
98.4	29.0
98.6	35.0
98.8	59.0
99.0	136.0
99.1	381.0
99.4	1502.0
99.6	1988.0
99.8	1931.0
100.0	1096.0
