Detector angle	Rate at 35kV
2*theta/°	R(35kV)/Imp/s

10.0	26.0
10.2	23.0
10.4	22.0
10.6	17.0
10.8	22.0
11.0	16.0
11.2	19.0
11.3	30.0
11.6	22.0
11.8	20.0
12.0	15.0
12.2	19.0
12.4	15.0
12.6	28.0
12.8	16.0
13.0	19.0
13.2	16.0
13.4	20.0
13.6	31.0
13.8	27.0
14.0	26.0
14.2	29.0
14.4	28.0
14.6	21.0
14.8	39.0
15.0	31.0
15.2	25.0
15.4	40.0
15.6	40.0
15.8	36.0
16.0	35.0
16.2	41.0
16.4	32.0
16.6	48.0
16.7	41.0
17.0	55.0
17.2	63.0
17.4	59.0
17.6	67.0
17.7	80.0
18.0	88.0
18.2	94.0
18.4	79.0
18.6	92.0
18.8	88.0
19.0	101.0
19.2	106.0
19.4	109.0
19.6	116.0
19.8	113.0
20.0	109.0
20.2	107.0
20.4	101.0
20.6	113.0
20.8	89.0
21.0	107.0
21.2	121.0
21.4	130.0
21.6	109.0
21.7	112.0
22.0	118.0
22.2	101.0
22.4	113.0
22.6	115.0
22.8	112.0
23.0	99.0
23.2	105.0
23.4	106.0
23.6	100.0
23.8	99.0
24.0	101.0
24.2	94.0
24.4	81.0
24.6	90.0
24.7	78.0
25.0	76.0
25.2	87.0
25.4	77.0
25.6	90.0
25.8	84.0
26.0	78.0
26.2	83.0
26.4	85.0
26.6	81.0
26.8	76.0
27.0	82.0
27.2	76.0
27.4	60.0
27.6	65.0
27.8	72.0
28.0	58.0
28.2	49.0
28.4	54.0
28.6	71.0
28.8	65.0
29.0	64.0
29.2	59.0
29.4	65.0
29.6	58.0
29.8	62.0
30.0	60.0
30.2	54.0
30.4	58.0
30.6	57.0
30.8	55.0
31.0	57.0
31.2	57.0
31.4	61.0
31.6	54.0
31.8	55.0
32.0	58.0
32.2	60.0
32.4	35.0
32.5	49.0
32.8	60.0
33.0	49.0
33.2	52.0
33.4	54.0
33.6	56.0
33.8	53.0
34.0	44.0
34.2	44.0
34.4	47.0
34.5	50.0
34.8	49.0
35.0	48.0
35.2	42.0
35.4	58.0
35.5	39.0
35.8	48.0
36.0	51.0
36.2	32.0
36.4	45.0
36.5	40.0
36.8	39.0
37.0	42.0
37.2	44.0
37.4	35.0
37.5	48.0
37.8	32.0
38.0	40.0
38.2	30.0
38.4	43.0
38.6	36.0
38.8	37.0
39.0	0.0
39.2	37.0
39.4	33.0
39.5	19.0
39.8	35.0
40.0	36.0
40.2	32.0
40.4	25.0
40.5	30.0
40.8	28.0
41.0	18.0
41.2	29.0
41.4	26.0
41.5	27.0
41.8	25.0
42.0	23.0
42.2	27.0
42.4	31.0
42.6	28.0
42.8	30.0
43.0	25.0
43.2	36.0
43.4	27.0
43.6	25.0
43.8	28.0
44.0	22.0
44.2	38.0
44.4	23.0
44.5	23.0
44.8	26.0
45.0	17.0
45.2	20.0
45.4	26.0
45.5	20.0
45.8	15.0
46.0	20.0
46.2	0.0
46.4	22.0
46.5	22.0
46.8	20.0
47.0	18.0
47.2	14.0
47.4	18.0
47.6	23.0
47.8	23.0
48.0	27.0
48.2	19.0
48.4	21.0
48.6	25.0
48.8	19.0
49.0	16.0
49.2	18.0
49.4	12.0
49.5	18.0
49.8	19.0
50.0	11.0
50.2	13.0
50.4	19.0
50.5	18.0
50.8	17.0
51.0	14.0
51.2	17.0
51.4	20.0
51.6	10.0
51.8	13.0
52.0	17.0
52.2	15.0
52.4	11.0
52.6	11.0
52.8	14.0
53.0	20.0
53.2	15.0
53.4	13.0
53.6	13.0
53.8	15.0
54.0	7.0
54.2	17.0
54.4	13.0
54.6	10.0
54.8	14.0
55.0	13.0
55.2	14.0
55.4	18.0
55.6	8.0
55.8	21.0
56.0	18.0
56.2	10.0
56.4	11.0
56.6	11.0
56.8	13.0
57.0	14.0
57.2	13.0
57.4	16.0
57.6	10.0
57.8	14.0
58.0	15.0
58.2	14.0
58.4	18.0
58.6	13.0
58.8	10.0
59.0	9.0
59.2	9.0
59.4	4.0
59.6	10.0
59.8	7.0
60.0	16.0
60.2	15.0
60.4	11.0
60.6	15.0
60.8	9.0
61.0	12.0
61.2	10.0
61.4	10.0
61.6	4.0
61.8	9.0
62.0	15.0
62.2	9.0
62.4	12.0
62.6	9.0
62.8	8.0
63.0	3.0
63.2	7.0
63.4	8.0
63.6	6.0
63.8	11.0
64.0	8.0
64.1	10.0
64.4	12.0
64.6	7.0
64.8	6.0
65.0	5.0
65.2	6.0
65.4	9.0
65.6	7.0
65.8	7.0
66.0	5.0
66.2	9.0
66.4	8.0
66.6	12.0
66.8	3.0
67.0	8.0
67.2	6.0
67.4	4.0
67.6	9.0
67.8	8.0
68.0	7.0
68.2	7.0
68.4	4.0
68.6	0.0
68.8	10.0
69.0	9.0
69.1	9.0
69.4	42.0
69.6	68.0
69.8	87.0
70.0	67.0
70.2	48.0
70.4	3.0
70.6	11.0
70.8	5.0
71.0	4.0
71.2	7.0
71.4	4.0
71.6	6.0
71.8	12.0
72.0	2.0
72.2	7.0
72.4	5.0
72.6	4.0
72.8	2.0
73.0	0.0
73.2	6.0
73.4	5.0
73.6	5.0
73.8	3.0
74.0	5.0
74.1	3.0
74.4	4.0
74.6	8.0
74.8	4.0
75.0	2.0
75.2	8.0
75.4	3.0
75.6	5.0
75.8	4.0
76.0	4.0
76.2	0.0
76.4	4.0
76.6	1.0
76.8	3.0
77.0	4.0
77.2	4.0
77.4	1.0
77.6	7.0
77.8	1.0
78.0	4.0
78.2	2.0
78.4	2.0
78.6	4.0
78.8	3.0
79.0	3.0
79.1	5.0
79.4	1.0
79.6	3.0
79.8	3.0
80.0	4.0
80.2	1.0
80.4	3.0
80.6	2.0
80.8	1.0
81.0	2.0
81.1	2.0
81.4	2.0
81.6	0.0
81.8	6.0
82.0	1.0
82.2	7.0
82.4	3.0
82.6	3.0
82.8	4.0
83.0	2.0
83.2	2.0
83.4	1.0
83.6	5.0
83.8	8.0
84.0	0.0
84.1	3.0
84.4	2.0
84.6	3.0
84.8	3.0
85.0	5.0
85.2	4.0
85.4	3.0
85.6	3.0
85.8	2.0
86.0	0.0
86.1	4.0
86.4	3.0
86.6	4.0
86.8	1.0
87.0	1.0
87.2	3.0
87.4	3.0
87.6	0.0
87.8	2.0
88.0	3.0
88.2	2.0
88.4	2.0
88.6	2.0
88.8	3.0
89.0	3.0
89.1	2.0
89.4	2.0
89.6	1.0
89.8	2.0
90.0	0.0
90.2	0.0
90.4	1.0
90.6	2.0
90.8	0.0
91.0	1.0
91.1	3.0
91.4	3.0
91.6	1.0
91.8	1.0
92.0	5.0
92.2	1.0
92.4	2.0
92.6	6.0
92.8	2.0
93.0	1.0
93.2	3.0
93.4	1.0
93.6	1.0
93.8	2.0
94.0	3.0
94.1	2.0
94.4	4.0
94.6	3.0
94.8	3.0
95.0	0.0
95.2	0.0
95.4	3.0
95.6	2.0
95.8	1.0
96.0	6.0
96.1	0.0
96.4	3.0
96.6	6.0
96.8	0.0
97.0	0.0
97.2	1.0
97.4	4.0
97.6	2.0
97.8	3.0
98.0	4.0
98.2	0.0
98.4	4.0
98.6	5.0
98.8	2.0
99.0	1.0
99.1	0.0
99.4	4.0
99.6	1.0
99.8	0.0
100.0	1.0
