Detector angle	Rate at 35kV
2*theta/°	R(35kV)/Imp/s

10.0	30.0
10.2	53.0
10.4	74.0
10.6	85.0
10.8	113.0
11.0	135.0
11.2	165.0
11.3	171.0
11.6	182.0
11.8	217.0
12.0	233.0
12.2	252.0
12.4	296.0
12.6	330.0
12.8	326.0
13.0	321.0
13.2	345.0
13.4	391.0
13.6	386.0
13.8	373.0
14.0	395.0
14.2	414.0
14.4	414.0
14.6	419.0
14.8	436.0
15.0	472.0
15.2	455.0
15.4	460.0
15.6	492.0
15.8	500.0
16.0	487.0
16.2	478.0
16.4	509.0
16.6	501.0
16.7	550.0
17.0	570.0
17.2	717.0
17.4	1039.0
17.6	1282.0
17.7	1248.0
18.0	936.0
18.2	727.0
18.4	720.0
18.6	731.0
18.8	733.0
19.0	746.0
19.2	836.0
19.4	1112.0
19.6	2903.0
19.8	4352.0
20.0	4269.0
20.2	3400.0
20.4	1402.0
20.6	924.0
20.8	875.0
21.0	896.0
21.2	891.0
21.4	885.0
21.6	843.0
21.7	859.0
22.0	779.0
22.2	758.0
22.4	712.0
22.6	751.0
22.8	717.0
23.0	677.0
23.2	701.0
23.4	679.0
23.6	684.0
23.8	688.0
24.0	713.0
24.2	672.0
24.4	706.0
24.6	683.0
24.7	679.0
25.0	714.0
25.2	694.0
25.4	689.0
25.6	674.0
25.8	701.0
26.0	635.0
26.2	619.0
26.4	625.0
26.6	613.0
26.8	597.0
27.0	533.0
27.2	523.0
27.4	481.0
27.6	489.0
27.8	476.0
28.0	524.0
28.2	495.0
28.4	473.0
28.6	476.0
28.8	492.0
29.0	488.0
29.2	487.0
29.4	496.0
29.6	484.0
29.8	460.0
30.0	469.0
30.2	468.0
30.4	446.0
30.6	452.0
30.8	480.0
31.0	448.0
31.2	474.0
31.4	477.0
31.6	437.0
31.8	443.0
32.0	428.0
32.2	429.0
32.4	430.0
32.5	417.0
32.8	415.0
33.0	431.0
33.2	386.0
33.4	390.0
33.6	393.0
33.8	420.0
34.0	389.0
34.2	389.0
34.4	381.0
34.5	379.0
34.8	372.0
35.0	395.0
35.2	400.0
35.4	405.0
35.5	429.0
35.8	477.0
36.0	545.0
36.2	493.0
36.4	490.0
36.5	481.0
36.8	403.0
37.0	401.0
37.2	339.0
37.4	334.0
37.5	349.0
37.8	319.0
38.0	311.0
38.2	327.0
38.4	333.0
38.6	322.0
38.8	289.0
39.0	304.0
39.2	289.0
39.4	273.0
39.5	286.0
39.8	289.0
40.0	313.0
40.2	356.0
40.4	510.0
40.5	712.0
40.8	996.0
41.0	1059.0
41.2	813.0
41.4	521.0
41.5	0.0
41.8	287.0
42.0	261.0
42.2	280.0
42.4	283.0
42.6	328.0
42.8	330.0
43.0	305.0
43.2	258.0
43.4	218.0
43.6	196.0
43.8	201.0
44.0	206.0
44.2	219.0
44.4	191.0
44.5	226.0
44.8	206.0
45.0	198.0
45.2	183.0
45.4	172.0
45.5	185.0
45.8	160.0
46.0	167.0
46.2	181.0
46.4	154.0
46.5	153.0
46.8	150.0
47.0	173.0
47.2	157.0
47.4	140.0
47.6	159.0
47.8	155.0
48.0	139.0
48.2	131.0
48.4	125.0
48.6	143.0
48.8	125.0
49.0	123.0
49.2	132.0
49.4	124.0
49.5	120.0
49.8	115.0
50.0	110.0
50.2	140.0
50.4	123.0
50.5	133.0
50.8	115.0
51.0	125.0
51.2	96.0
51.4	124.0
51.6	112.0
51.8	97.0
52.0	106.0
52.2	94.0
52.4	104.0
52.6	113.0
52.8	86.0
53.0	94.0
53.2	84.0
53.4	93.0
53.6	81.0
53.8	94.0
54.0	91.0
54.2	78.0
54.4	77.0
54.6	97.0
54.8	75.0
55.0	99.0
55.2	80.0
55.4	75.0
55.6	88.0
55.8	90.0
56.0	88.0
56.2	75.0
56.4	84.0
56.6	52.0
56.8	71.0
57.0	63.0
57.2	62.0
57.4	64.0
57.6	75.0
57.8	55.0
58.0	70.0
58.2	58.0
58.4	61.0
58.6	58.0
58.8	61.0
59.0	44.0
59.2	59.0
59.4	49.0
59.6	61.0
59.8	56.0
60.0	56.0
60.2	53.0
60.4	40.0
60.6	57.0
60.8	46.0
61.0	46.0
61.2	51.0
61.4	41.0
61.6	46.0
61.8	43.0
62.0	48.0
62.2	45.0
62.4	49.0
62.6	38.0
62.8	48.0
63.0	64.0
63.2	117.0
63.4	133.0
63.6	109.0
63.8	105.0
64.0	78.0
64.1	67.0
64.4	56.0
64.6	50.0
64.8	47.0
65.0	48.0
65.2	49.0
65.4	47.0
65.6	50.0
65.8	45.0
66.0	44.0
66.2	38.0
66.4	33.0
66.6	51.0
66.8	32.0
67.0	44.0
67.2	38.0
67.4	44.0
67.6	41.0
67.8	38.0
68.0	39.0
68.2	32.0
68.4	42.0
68.6	34.0
68.8	38.0
69.0	32.0
69.1	32.0
69.4	29.0
69.6	30.0
69.8	34.0
70.0	35.0
70.2	36.0
70.4	34.0
70.6	35.0
70.8	40.0
71.0	31.0
71.2	28.0
71.4	31.0
71.6	34.0
71.8	37.0
72.0	38.0
72.2	32.0
72.4	27.0
72.6	27.0
72.8	32.0
73.0	30.0
73.2	35.0
73.4	29.0
73.6	29.0
73.8	31.0
74.0	21.0
74.1	25.0
74.4	27.0
74.6	23.0
74.8	29.0
75.0	30.0
75.2	37.0
75.4	32.0
75.6	33.0
75.8	32.0
76.0	29.0
76.2	31.0
76.4	32.0
76.6	34.0
76.8	28.0
77.0	30.0
77.2	30.0
77.4	30.0
77.6	31.0
77.8	27.0
78.0	33.0
78.2	24.0
78.4	28.0
78.6	25.0
78.8	29.0
79.0	23.0
79.1	24.0
79.4	27.0
79.6	20.0
79.8	22.0
80.0	24.0
80.2	27.0
80.4	23.0
80.6	27.0
80.8	28.0
81.0	23.0
81.1	24.0
81.4	23.0
81.6	19.0
81.8	24.0
82.0	25.0
82.2	20.0
82.4	24.0
82.6	19.0
82.8	24.0
83.0	31.0
83.2	20.0
83.4	23.0
83.6	18.0
83.8	26.0
84.0	20.0
84.1	23.0
84.4	22.0
84.6	22.0
84.8	20.0
85.0	22.0
85.2	20.0
85.4	26.0
85.6	23.0
85.8	20.0
86.0	22.0
86.1	17.0
86.4	15.0
86.6	27.0
86.8	19.0
87.0	19.0
87.2	16.0
87.4	20.0
87.6	19.0
87.8	18.0
88.0	15.0
88.2	22.0
88.4	22.0
88.6	18.0
88.8	25.0
89.0	32.0
89.1	32.0
89.4	36.0
89.6	28.0
89.8	24.0
90.0	25.0
90.2	26.0
90.4	18.0
90.6	23.0
90.8	19.0
91.0	23.0
91.1	16.0
91.4	18.0
91.6	15.0
91.8	19.0
92.0	25.0
92.2	17.0
92.4	14.0
92.6	13.0
92.8	14.0
93.0	18.0
93.2	15.0
93.4	12.0
93.6	26.0
93.8	28.0
94.0	33.0
94.1	23.0
94.4	14.0
94.6	13.0
94.8	20.0
95.0	18.0
95.2	19.0
95.4	11.0
95.6	9.0
95.8	15.0
96.0	11.0
96.1	17.0
96.4	14.0
96.6	10.0
96.8	14.0
97.0	12.0
97.2	16.0
97.4	13.0
97.6	13.0
97.8	11.0
98.0	13.0
98.2	22.0
98.4	15.0
98.6	15.0
98.8	12.0
99.0	14.0
99.1	16.0
99.4	19.0
99.6	19.0
99.8	11.0
100.0	17.0
