Detector angle	Rate at 35kV
2*theta/°	R(35kV)/Imp/s

10.0	39.0
10.2	59.0
10.4	72.0
10.6	92.0
10.8	119.0
11.0	142.0
11.2	167.0
11.3	158.0
11.6	193.0
11.8	217.0
12.0	244.0
12.2	258.0
12.4	281.0
12.6	317.0
12.8	315.0
13.0	352.0
13.2	380.0
13.4	379.0
13.6	378.0
13.8	403.0
14.0	417.0
14.2	435.0
14.4	401.0
14.6	446.0
14.8	448.0
15.0	455.0
15.2	452.0
15.4	458.0
15.6	467.0
15.8	468.0
16.0	483.0
16.2	502.0
16.4	524.0
16.6	516.0
16.7	525.0
17.0	596.0
17.2	726.0
17.4	1064.0
17.6	1299.0
17.7	1269.0
18.0	968.0
18.2	762.0
18.4	721.0
18.6	740.0
18.8	763.0
19.0	790.0
19.2	842.0
19.4	1108.0
19.6	2988.0
19.8	4309.0
20.0	4278.0
20.2	3395.0
20.4	1401.0
20.6	934.0
20.8	901.0
21.0	885.0
21.2	922.0
21.4	878.0
21.6	880.0
21.7	828.0
22.0	795.0
22.2	748.0
22.4	753.0
22.6	739.0
22.8	741.0
23.0	716.0
23.2	719.0
23.4	679.0
23.6	705.0
23.8	711.0
24.0	720.0
24.2	714.0
24.4	698.0
24.6	701.0
24.7	703.0
25.0	698.0
25.2	689.0
25.4	679.0
25.6	683.0
25.8	708.0
26.0	654.0
26.2	635.0
26.4	610.0
26.6	597.0
26.8	565.0
27.0	561.0
27.2	527.0
27.4	488.0
27.6	515.0
27.8	486.0
28.0	494.0
28.2	481.0
28.4	484.0
28.6	482.0
28.8	482.0
29.0	508.0
29.2	479.0
29.4	469.0
29.6	456.0
29.8	445.0
30.0	473.0
30.2	466.0
30.4	478.0
30.6	439.0
30.8	471.0
31.0	449.0
31.2	449.0
31.4	453.0
31.6	453.0
31.8	436.0
32.0	424.0
32.2	455.0
32.4	445.0
32.5	427.0
32.8	397.0
33.0	388.0
33.2	430.0
33.4	398.0
33.6	412.0
33.8	403.0
34.0	409.0
34.2	400.0
34.4	370.0
34.5	409.0
34.8	350.0
35.0	375.0
35.2	372.0
35.4	410.0
35.5	460.0
35.8	465.0
36.0	515.0
36.2	504.0
36.4	494.0
36.5	475.0
36.8	387.0
37.0	406.0
37.2	356.0
37.4	373.0
37.5	376.0
37.8	325.0
38.0	347.0
38.2	318.0
38.4	336.0
38.6	305.0
38.8	300.0
39.0	310.0
39.2	298.0
39.4	295.0
39.5	303.0
39.8	282.0
40.0	312.0
40.2	347.0
40.4	523.0
40.5	708.0
40.8	976.0
41.0	1060.0
41.2	787.0
41.4	508.0
41.5	374.0
41.8	259.0
42.0	287.0
42.2	276.0
42.4	310.0
42.6	342.0
42.8	333.0
43.0	303.0
43.2	269.0
43.4	209.0
43.6	216.0
43.8	212.0
44.0	192.0
44.2	191.0
44.4	198.0
44.5	203.0
44.8	228.0
45.0	202.0
45.2	166.0
45.4	181.0
45.5	175.0
45.8	180.0
46.0	173.0
46.2	179.0
46.4	174.0
46.5	182.0
46.8	156.0
47.0	163.0
47.2	155.0
47.4	149.0
47.6	146.0
47.8	148.0
48.0	150.0
48.2	134.0
48.4	146.0
48.6	136.0
48.8	153.0
49.0	136.0
49.2	127.0
49.4	121.0
49.5	124.0
49.8	118.0
50.0	125.0
50.2	109.0
50.4	116.0
50.5	124.0
50.8	113.0
51.0	110.0
51.2	116.0
51.4	113.0
51.6	114.0
51.8	104.0
52.0	108.0
52.2	120.0
52.4	107.0
52.6	91.0
52.8	99.0
53.0	91.0
53.2	89.0
53.4	93.0
53.6	91.0
53.8	90.0
54.0	90.0
54.2	82.0
54.4	79.0
54.6	82.0
54.8	89.0
55.0	89.0
55.2	81.0
55.4	84.0
55.6	88.0
55.8	97.0
56.0	81.0
56.2	72.0
56.4	76.0
56.6	70.0
56.8	0.0
57.0	76.0
57.2	61.0
57.4	59.0
57.6	63.0
57.8	48.0
58.0	62.0
58.2	65.0
58.4	50.0
58.6	0.0
58.8	56.0
59.0	67.0
59.2	55.0
59.4	59.0
59.6	57.0
59.8	64.0
60.0	52.0
60.2	51.0
60.4	54.0
60.6	47.0
60.8	53.0
61.0	48.0
61.2	46.0
61.4	42.0
61.6	46.0
61.8	42.0
62.0	51.0
62.2	45.0
62.4	46.0
62.6	51.0
62.8	59.0
63.0	81.0
63.2	104.0
63.4	131.0
63.6	133.0
63.8	112.0
64.0	83.0
64.1	70.0
64.4	51.0
64.6	49.0
64.8	46.0
65.0	41.0
65.2	46.0
65.4	45.0
65.6	49.0
65.8	46.0
66.0	45.0
66.2	44.0
66.4	37.0
66.6	40.0
66.8	35.0
67.0	34.0
67.2	34.0
67.4	40.0
67.6	40.0
67.8	34.0
68.0	36.0
68.2	36.0
68.4	35.0
68.6	27.0
68.8	31.0
69.0	34.0
69.1	39.0
69.4	42.0
69.6	25.0
69.8	36.0
70.0	41.0
70.2	33.0
70.4	35.0
70.6	30.0
70.8	29.0
71.0	35.0
71.2	40.0
71.4	37.0
71.6	30.0
71.8	39.0
72.0	26.0
72.2	27.0
72.4	38.0
72.6	27.0
72.8	37.0
73.0	33.0
73.2	33.0
73.4	31.0
73.6	31.0
73.8	30.0
74.0	27.0
74.1	24.0
74.4	30.0
74.6	0.0
74.8	31.0
75.0	31.0
75.2	25.0
75.4	25.0
75.6	29.0
75.8	26.0
76.0	35.0
76.2	38.0
76.4	31.0
76.6	27.0
76.8	27.0
77.0	27.0
77.2	23.0
77.4	29.0
77.6	25.0
77.8	27.0
78.0	29.0
78.2	29.0
78.4	35.0
78.6	38.0
78.8	31.0
79.0	36.0
79.1	23.0
79.4	27.0
79.6	24.0
79.8	27.0
80.0	19.0
80.2	25.0
80.4	22.0
80.6	20.0
80.8	26.0
81.0	25.0
81.1	25.0
81.4	24.0
81.6	22.0
81.8	23.0
82.0	20.0
82.2	24.0
82.4	23.0
82.6	25.0
82.8	21.0
83.0	27.0
83.2	25.0
83.4	17.0
83.6	22.0
83.8	23.0
84.0	22.0
84.1	25.0
84.4	18.0
84.6	17.0
84.8	18.0
85.0	20.0
85.2	28.0
85.4	25.0
85.6	26.0
85.8	26.0
86.0	15.0
86.1	16.0
86.4	19.0
86.6	23.0
86.8	20.0
87.0	20.0
87.2	24.0
87.4	19.0
87.6	16.0
87.8	22.0
88.0	22.0
88.2	16.0
88.4	15.0
88.6	24.0
88.8	25.0
89.0	25.0
89.1	32.0
89.4	30.0
89.6	32.0
89.8	26.0
90.0	32.0
90.2	23.0
90.4	24.0
90.6	17.0
90.8	20.0
91.0	18.0
91.1	18.0
91.4	16.0
91.6	18.0
91.8	12.0
92.0	20.0
92.2	18.0
92.4	19.0
92.6	16.0
92.8	15.0
93.0	16.0
93.2	22.0
93.4	17.0
93.6	25.0
93.8	26.0
94.0	31.0
94.1	34.0
94.4	24.0
94.6	11.0
94.8	22.0
95.0	16.0
95.2	18.0
95.4	16.0
95.6	13.0
95.8	15.0
96.0	18.0
96.1	11.0
96.4	13.0
96.6	13.0
96.8	14.0
97.0	12.0
97.2	15.0
97.4	19.0
97.6	21.0
97.8	22.0
98.0	17.0
98.2	14.0
98.4	13.0
98.6	16.0
98.8	11.0
99.0	16.0
99.1	18.0
99.4	15.0
99.6	16.0
99.8	14.0
100.0	14.0
